# Time (s), Input signal, Derivative, Derivative positive, Derivative negative
1.000000000000000056e-01,5.125581039058626942e+00,6.275952090236991410e-01,6.275952090236991410e-01,0.000000000000000000e+00
2.000000000000000111e-01,5.188216626637029094e+00,6.263558757840215208e-01,6.263558757840215208e-01,0.000000000000000000e+00
3.000000000000000444e-01,5.250666467128608517e+00,6.244984049157942252e-01,6.244984049157942252e-01,0.000000000000000000e+00
4.000000000000000222e-01,5.312868930080461460e+00,6.220246295185294372e-01,6.220246295185294372e-01,0.000000000000000000e+00
5.000000000000000000e-01,5.374762629171449646e+00,6.189369909098818567e-01,6.189369909098818567e-01,0.000000000000000000e+00
6.000000000000000888e-01,5.436286482793084573e+00,6.152385362163492744e-01,6.152385362163492744e-01,0.000000000000000000e+00
7.000000000000000666e-01,5.497379774329709257e+00,6.109329153662468315e-01,6.109329153662468315e-01,0.000000000000000000e+00
8.000000000000000444e-01,5.557982212078458772e+00,6.060243774874951583e-01,6.060243774874951583e-01,0.000000000000000000e+00
9.000000000000000222e-01,5.618033988749894903e+00,6.005177667143613007e-01,6.005177667143613007e-01,0.000000000000000000e+00
1.000000000000000000e+00,5.677475840490582293e+00,5.944185174068739030e-01,5.944185174068739030e-01,0.000000000000000000e+00
1.100000000000000089e+00,5.736249105369355838e+00,5.877326487877354566e-01,5.877326487877354566e-01,0.000000000000000000e+00
1.200000000000000178e+00,5.794295781269561019e+00,5.804667590020518020e-01,5.804667590020518020e-01,0.000000000000000000e+00
1.300000000000000044e+00,5.851558583130145763e+00,5.726280186058474442e-01,5.726280186058474442e-01,0.000000000000000000e+00
1.400000000000000133e+00,5.907980999479093498e+00,5.642241634894773483e-01,5.642241634894773483e-01,0.000000000000000000e+00
1.500000000000000000e+00,5.963507348203430425e+00,5.552634872433692692e-01,5.552634872433692692e-01,0.000000000000000000e+00
1.600000000000000089e+00,6.018082831500742635e+00,5.457548329731221060e-01,5.457548329731221060e-01,0.000000000000000000e+00
1.700000000000000178e+00,6.071653589957993091e+00,5.357075845725045582e-01,5.357075845725045582e-01,0.000000000000000000e+00
1.800000000000000044e+00,6.124166755704261611e+00,5.251316574626851974e-01,5.251316574626851974e-01,0.000000000000000000e+00
1.900000000000000133e+00,6.175570504584946718e+00,5.140374888068510728e-01,5.140374888068510728e-01,0.000000000000000000e+00
2.000000000000000000e+00,6.225814107305953193e+00,5.024360272100647506e-01,5.024360272100647506e-01,0.000000000000000000e+00
2.100000000000000089e+00,6.274847979497379491e+00,4.903387219142629760e-01,4.903387219142629760e-01,0.000000000000000000e+00
2.200000000000000178e+00,6.322623730647304541e+00,4.777575114992504979e-01,4.777575114992504979e-01,0.000000000000000000e+00
2.300000000000000266e+00,6.369094211857377452e+00,4.647048121007291144e-01,4.647048121007291144e-01,0.000000000000000000e+00
2.400000000000000355e+00,6.414213562373095812e+00,4.511935051571835942e-01,4.511935051571835942e-01,0.000000000000000000e+00
2.500000000000000000e+00,6.457937254842823549e+00,4.372369246972773738e-01,4.372369246972773738e-01,0.000000000000000000e+00
2.600000000000000089e+00,6.500222139260919185e+00,4.228488441809563625e-01,4.228488441809563625e-01,0.000000000000000000e+00
2.700000000000000178e+00,6.541026485551578951e+00,4.080434629065976537e-01,4.080434629065976537e-01,0.000000000000000000e+00
2.800000000000000266e+00,6.580310024751381270e+00,3.928353919980231979e-01,3.928353919980231979e-01,0.000000000000000000e+00
2.900000000000000355e+00,6.618033988749894903e+00,3.772396399851363213e-01,3.772396399851363213e-01,0.000000000000000000e+00
3.000000000000000000e+00,6.654161148549124327e+00,3.612715979922942466e-01,3.612715979922942466e-01,0.000000000000000000e+00
3.100000000000000089e+00,6.688655851004030595e+00,3.449470245490626752e-01,3.449470245490626752e-01,0.000000000000000000e+00
3.200000000000000178e+00,6.721484054007888176e+00,3.282820300385758117e-01,3.282820300385758117e-01,0.000000000000000000e+00
3.300000000000000266e+00,6.752613360087727834e+00,3.112930607983965814e-01,3.112930607983965814e-01,0.000000000000000000e+00
3.400000000000000355e+00,6.782013048376736464e+00,2.939968828900862974e-01,2.939968828900862974e-01,0.000000000000000000e+00
3.500000000000000000e+00,6.809654104932039154e+00,2.764105655530268990e-01,2.764105655530268990e-01,0.000000000000000000e+00
3.600000000000000089e+00,6.835509251367962946e+00,2.585514643592379258e-01,2.585514643592379258e-01,0.000000000000000000e+00
3.700000000000000178e+00,6.859552971776503583e+00,2.404372040854063641e-01,2.404372040854063641e-01,0.000000000000000000e+00
3.800000000000000266e+00,6.881761537908451132e+00,2.220856613194754914e-01,2.220856613194754914e-01,0.000000000000000000e+00
3.900000000000000355e+00,6.902113032590307284e+00,2.035149468185615262e-01,2.035149468185615262e-01,0.000000000000000000e+00
4.000000000000000000e+00,6.920587371353886574e+00,1.847433876357928995e-01,1.847433876357928995e-01,0.000000000000000000e+00
4.100000000000000533e+00,6.937166322257262152e+00,1.657895090337557775e-01,1.657895090337557775e-01,0.000000000000000000e+00
4.200000000000000178e+00,6.951833523877494869e+00,1.466720162023271712e-01,1.466720162023271712e-01,0.000000000000000000e+00
4.299999999999999822e+00,6.964574501457377664e+00,1.274097757988279511e-01,1.274097757988279511e-01,0.000000000000000000e+00
4.400000000000000355e+00,6.975376681190275541e+00,1.080217973289787636e-01,1.080217973289787636e-01,0.000000000000000000e+00
4.500000000000000000e+00,6.984229402628955086e+00,8.852721438679544974e-02,8.852721438679544974e-02,0.000000000000000000e+00
4.600000000000000533e+00,6.991123929206159993e+00,6.894526577204906914e-02,6.894526577204906914e-02,0.000000000000000000e+00
4.700000000000000178e+00,6.996053456856543562e+00,4.929527650383569437e-02,4.929527650383569437e-02,0.000000000000000000e+00
4.800000000000000711e+00,6.999013120731462756e+00,2.959663874919193916e-02,2.959663874919193916e-02,0.000000000000000000e+00
4.900000000000000355e+00,7.000000000000000000e+00,9.868792685372440587e-03,9.868792685372440587e-03,0.000000000000000000e+00
5.000000000000000000e+00,6.999013120731463644e+00,-9.868792685363558803e-03,0.000000000000000000e+00,-9.868792685363558803e-03
5.100000000000000533e+00,6.996053456856543562e+00,-2.959663874920082094e-02,0.000000000000000000e+00,-2.959663874920082094e-02
5.200000000000000178e+00,6.991123929206159993e+00,-4.929527650383569437e-02,0.000000000000000000e+00,-4.929527650383569437e-02
5.300000000000000711e+00,6.984229402628955974e+00,-6.894526577204018736e-02,0.000000000000000000e+00,-6.894526577204018736e-02
5.400000000000000355e+00,6.975376681190275541e+00,-8.852721438680433153e-02,0.000000000000000000e+00,-8.852721438680433153e-02
5.500000000000000000e+00,6.964574501457377664e+00,-1.080217973289787636e-01,0.000000000000000000e+00,-1.080217973289787636e-01
5.600000000000000533e+00,6.951833523877494869e+00,-1.274097757988279511e-01,0.000000000000000000e+00,-1.274097757988279511e-01
5.700000000000000178e+00,6.937166322257262152e+00,-1.466720162023271712e-01,0.000000000000000000e+00,-1.466720162023271712e-01
5.800000000000000711e+00,6.920587371353885686e+00,-1.657895090337646593e-01,0.000000000000000000e+00,-1.657895090337646593e-01
5.900000000000000355e+00,6.902113032590307284e+00,-1.847433876357840177e-01,0.000000000000000000e+00,-1.847433876357840177e-01
6.000000000000000000e+00,6.881761537908451132e+00,-2.035149468185615262e-01,0.000000000000000000e+00,-2.035149468185615262e-01
6.100000000000000533e+00,6.859552971776502694e+00,-2.220856613194843732e-01,0.000000000000000000e+00,-2.220856613194843732e-01
6.200000000000000178e+00,6.835509251367962946e+00,-2.404372040853974823e-01,0.000000000000000000e+00,-2.404372040853974823e-01
6.300000000000000711e+00,6.809654104932039154e+00,-2.585514643592379258e-01,0.000000000000000000e+00,-2.585514643592379258e-01
6.400000000000000355e+00,6.782013048376735576e+00,-2.764105655530357808e-01,0.000000000000000000e+00,-2.764105655530357808e-01
6.500000000000000000e+00,6.752613360087726946e+00,-2.939968828900862974e-01,0.000000000000000000e+00,-2.939968828900862974e-01
6.600000000000000533e+00,6.721484054007887288e+00,-3.112930607983965814e-01,0.000000000000000000e+00,-3.112930607983965814e-01
6.700000000000000178e+00,6.688655851004029707e+00,-3.282820300385758117e-01,0.000000000000000000e+00,-3.282820300385758117e-01
6.800000000000000711e+00,6.654161148549123439e+00,-3.449470245490626752e-01,0.000000000000000000e+00,-3.449470245490626752e-01
6.900000000000000355e+00,6.618033988749894903e+00,-3.612715979922853649e-01,0.000000000000000000e+00,-3.612715979922853649e-01
7.000000000000000000e+00,6.580310024751380382e+00,-3.772396399851452031e-01,0.000000000000000000e+00,-3.772396399851452031e-01
7.100000000000000533e+00,6.541026485551578062e+00,-3.928353919980231979e-01,0.000000000000000000e+00,-3.928353919980231979e-01
7.200000000000000178e+00,6.500222139260918297e+00,-4.080434629065976537e-01,0.000000000000000000e+00,-4.080434629065976537e-01
7.300000000000000711e+00,6.457937254842822661e+00,-4.228488441809563625e-01,0.000000000000000000e+00,-4.228488441809563625e-01
7.400000000000000355e+00,6.414213562373094035e+00,-4.372369246972862555e-01,0.000000000000000000e+00,-4.372369246972862555e-01
7.500000000000000000e+00,6.369094211857376564e+00,-4.511935051571747124e-01,0.000000000000000000e+00,-4.511935051571747124e-01
7.600000000000000533e+00,6.322623730647302764e+00,-4.647048121007379962e-01,0.000000000000000000e+00,-4.647048121007379962e-01
7.700000000000000178e+00,6.274847979497378603e+00,-4.777575114992416161e-01,0.000000000000000000e+00,-4.777575114992416161e-01
7.800000000000000711e+00,6.225814107305952305e+00,-4.903387219142629760e-01,0.000000000000000000e+00,-4.903387219142629760e-01
7.900000000000000355e+00,6.175570504584945830e+00,-5.024360272100647506e-01,0.000000000000000000e+00,-5.024360272100647506e-01
8.000000000000000000e+00,6.124166755704260723e+00,-5.140374888068510728e-01,0.000000000000000000e+00,-5.140374888068510728e-01
8.099999999999999645e+00,6.071653589957992203e+00,-5.251316574626851974e-01,0.000000000000000000e+00,-5.251316574626851974e-01
8.200000000000001066e+00,6.018082831500741747e+00,-5.357075845725045582e-01,0.000000000000000000e+00,-5.357075845725045582e-01
8.300000000000000711e+00,5.963507348203429537e+00,-5.457548329731221060e-01,0.000000000000000000e+00,-5.457548329731221060e-01
8.400000000000000355e+00,5.907980999479091722e+00,-5.552634872433781510e-01,0.000000000000000000e+00,-5.552634872433781510e-01
8.500000000000000000e+00,5.851558583130143987e+00,-5.642241634894773483e-01,0.000000000000000000e+00,-5.642241634894773483e-01
8.599999999999999645e+00,5.794295781269560131e+00,-5.726280186058385624e-01,0.000000000000000000e+00,-5.726280186058385624e-01
8.700000000000001066e+00,5.736249105369355838e+00,-5.804667590020429202e-01,0.000000000000000000e+00,-5.804667590020429202e-01
8.800000000000000711e+00,5.677475840490581405e+00,-5.877326487877443384e-01,0.000000000000000000e+00,-5.877326487877443384e-01
8.900000000000000355e+00,5.618033988749893126e+00,-5.944185174068827848e-01,0.000000000000000000e+00,-5.944185174068827848e-01
9.000000000000000000e+00,5.557982212078456996e+00,-6.005177667143613007e-01,0.000000000000000000e+00,-6.005177667143613007e-01
9.099999999999999645e+00,5.497379774329708368e+00,-6.060243774874862766e-01,0.000000000000000000e+00,-6.060243774874862766e-01
9.200000000000001066e+00,5.436286482793084573e+00,-6.109329153662379497e-01,0.000000000000000000e+00,-6.109329153662379497e-01
9.300000000000000711e+00,5.374762629171448758e+00,-6.152385362163581561e-01,0.000000000000000000e+00,-6.152385362163581561e-01
9.400000000000000355e+00,5.312868930080462349e+00,-6.189369909098640932e-01,0.000000000000000000e+00,-6.189369909098640932e-01
9.500000000000000000e+00,5.250666467128609405e+00,-6.220246295185294372e-01,0.000000000000000000e+00,-6.220246295185294372e-01
9.600000000000001421e+00,5.188216626637029982e+00,-6.244984049157942252e-01,0.000000000000000000e+00,-6.244984049157942252e-01
9.700000000000001066e+00,5.125581039058627830e+00,-6.263558757840215208e-01,0.000000000000000000e+00,-6.263558757840215208e-01
9.800000000000000711e+00,5.062821518156257916e+00,-6.275952090236991410e-01,0.000000000000000000e+00,-6.275952090236991410e-01
9.900000000000000355e+00,5.000000000000001776e+00,-6.282151815625613978e-01,0.000000000000000000e+00,-6.282151815625613978e-01
1.000000000000000000e+01,4.842946204609360095e+00,-1.570537953906416817e+00,0.000000000000000000e+00,-1.570537953906416817e+00
1.010000000000000142e+01,4.686047402353433533e+00,-1.568988022559265616e+00,0.000000000000000000e+00,-1.568988022559265616e+00
1.020000000000000107e+01,4.529458433407429041e+00,-1.565889689460044920e+00,0.000000000000000000e+00,-1.565889689460044920e+00
1.030000000000000071e+01,4.373333832178478708e+00,-1.561246012289503327e+00,0.000000000000000000e+00,-1.561246012289503327e+00
1.040000000000000036e+01,4.217827674798845905e+00,-1.555061573796328034e+00,0.000000000000000000e+00,-1.555061573796328034e+00
1.050000000000000000e+01,4.063093427071378549e+00,-1.547342477274673556e+00,0.000000000000000000e+00,-1.547342477274673556e+00
1.060000000000000142e+01,3.909283793017287678e+00,-1.538096340540908713e+00,0.000000000000000000e+00,-1.538096340540908713e+00
1.070000000000000107e+01,3.756550564175727303e+00,-1.527332288415603756e+00,0.000000000000000000e+00,-1.527332288415603756e+00
1.080000000000000071e+01,3.605044469803853513e+00,-1.515060943718737896e+00,0.000000000000000000e+00,-1.515060943718737896e+00
1.090000000000000036e+01,3.454915028125263632e+00,-1.501294416785898811e+00,0.000000000000000000e+00,-1.501294416785898811e+00
1.100000000000000000e+01,3.306310398773544712e+00,-1.486046293517189198e+00,0.000000000000000000e+00,-1.486046293517189198e+00
1.110000000000000142e+01,3.159377236576610404e+00,-1.469331621969343082e+00,0.000000000000000000e+00,-1.469331621969343082e+00
1.120000000000000107e+01,3.014260546826097897e+00,-1.451166897505125064e+00,0.000000000000000000e+00,-1.451166897505125064e+00
1.130000000000000071e+01,2.871103542174636480e+00,-1.431570046514614170e+00,0.000000000000000000e+00,-1.431570046514614170e+00
1.140000000000000036e+01,2.730047501302266699e+00,-1.410560408723697812e+00,0.000000000000000000e+00,-1.410560408723697812e+00
1.150000000000000000e+01,2.591231629491424826e+00,-1.388158718108418732e+00,0.000000000000000000e+00,-1.388158718108418732e+00
1.160000000000000142e+01,2.454792921248143855e+00,-1.364387082432809706e+00,0.000000000000000000e+00,-1.364387082432809706e+00
1.170000000000000107e+01,2.320866025105016384e+00,-1.339268961431274718e+00,0.000000000000000000e+00,-1.339268961431274718e+00
1.180000000000000071e+01,2.189583110739347305e+00,-1.312829143656690789e+00,0.000000000000000000e+00,-1.312829143656690789e+00
1.190000000000000036e+01,2.061073738537634981e+00,-1.285093722017123241e+00,0.000000000000000000e+00,-1.285093722017123241e+00
1.200000000000000000e+01,1.935464731735117017e+00,-1.256090068025179640e+00,0.000000000000000000e+00,-1.256090068025179640e+00
1.210000000000000142e+01,1.812880051256551717e+00,-1.225846804785652999e+00,0.000000000000000000e+00,-1.225846804785652999e+00
1.220000000000000107e+01,1.693440673381739536e+00,-1.194393778748121804e+00,0.000000000000000000e+00,-1.194393778748121804e+00
1.230000000000000071e+01,1.577264470356556370e+00,-1.161762030251831668e+00,0.000000000000000000e+00,-1.161762030251831668e+00
1.240000000000000036e+01,1.464466094067261359e+00,-1.127983762892950104e+00,0.000000000000000000e+00,-1.127983762892950104e+00
1.250000000000000000e+01,1.355156862892942016e+00,-1.093092311743193434e+00,0.000000000000000000e+00,-1.093092311743193434e+00
1.260000000000000142e+01,1.249444651847700705e+00,-1.057122110452413111e+00,0.000000000000000000e+00,-1.057122110452413111e+00
1.270000000000000107e+01,1.147433786121053068e+00,-1.020108657266476371e+00,0.000000000000000000e+00,-1.020108657266476371e+00
1.280000000000000071e+01,1.049224938121548156e+00,-9.820884799950491129e-01,0.000000000000000000e+00,-9.820884799950491129e-01
1.290000000000000036e+01,9.549150281252636319e-01,-9.430990999628452442e-01,0.000000000000000000e+00,-9.430990999628452442e-01
1.300000000000000000e+01,8.645971286271887379e-01,-9.031789949807489393e-01,0.000000000000000000e+00,-9.031789949807489393e-01
1.310000000000000142e+01,7.783603724899235132e-01,-8.623675613726522471e-01,0.000000000000000000e+00,-8.623675613726522471e-01
1.320000000000000107e+01,6.962898649802813367e-01,-8.207050750964217656e-01,0.000000000000000000e+00,-8.207050750964217656e-01
1.330000000000000071e+01,6.184665997806799709e-01,-7.782326519960136579e-01,0.000000000000000000e+00,-7.782326519960136579e-01
1.340000000000000036e+01,5.449673790581588406e-01,-7.349922072252113026e-01,0.000000000000000000e+00,-7.349922072252113026e-01
1.350000000000000000e+01,4.758647376699007836e-01,-6.910264138825805702e-01,0.000000000000000000e+00,-6.910264138825805702e-01
1.360000000000000142e+01,4.112268715800935226e-01,-6.463786608980726101e-01,0.000000000000000000e+00,-6.463786608980726101e-01
1.370000000000000107e+01,3.511175705587428197e-01,-6.010930102135070285e-01,0.000000000000000000e+00,-6.010930102135070285e-01
1.380000000000000071e+01,2.955961552288730587e-01,-5.552141532986976102e-01,0.000000000000000000e+00,-5.552141532986976102e-01
1.390000000000000036e+01,2.447174185242309008e-01,-5.087873670464215792e-01,0.000000000000000000e+00,-5.087873670464215792e-01
1.400000000000000000e+01,1.985315716152840082e-01,-4.618584690894689260e-01,0.000000000000000000e+00,-4.618584690894689260e-01
1.410000000000000142e+01,1.570841943568437316e-01,-4.144737725844027665e-01,0.000000000000000000e+00,-4.144737725844027665e-01
1.420000000000000107e+01,1.204161903062628269e-01,-3.666800405058090462e-01,0.000000000000000000e+00,-3.666800405058090462e-01
1.430000000000000071e+01,8.856374635655672733e-02,-3.185244394970609960e-01,0.000000000000000000e+00,-3.185244394970609960e-01
1.440000000000000036e+01,6.155829702431159234e-02,-2.700544933224513500e-01,0.000000000000000000e+00,-2.700544933224513500e-01
1.450000000000000000e+01,3.942649342761139764e-02,-2.213180359670019470e-01,0.000000000000000000e+00,-2.213180359670019470e-01
1.460000000000000142e+01,2.219017698459957444e-02,-1.723631644301182320e-01,0.000000000000000000e+00,-1.723631644301182320e-01
1.470000000000000107e+01,9.866357858641983114e-03,-1.232381912595759133e-01,0.000000000000000000e+00,-1.232381912595759133e-01
1.480000000000000071e+01,2.467198171342666058e-03,-7.399159687299317056e-02,0.000000000000000000e+00,-7.399159687299317056e-02
1.490000000000000036e+01,0.000000000000000000e+00,-2.467198171342666058e-02,0.000000000000000000e+00,-2.467198171342666058e-02
1.500000000000000000e+01,2.467198171341777879e-03,2.467198171341777879e-02,2.467198171341777879e-02,0.000000000000000000e+00
1.510000000000000142e+01,9.866357858641983114e-03,7.399159687300205235e-02,7.399159687300205235e-02,0.000000000000000000e+00
1.520000000000000107e+01,2.219017698459957444e-02,1.232381912595759133e-01,1.232381912595759133e-01,0.000000000000000000e+00
1.530000000000000071e+01,3.942649342761050946e-02,1.723631644301093502e-01,1.723631644301093502e-01,0.000000000000000000e+00
1.540000000000000036e+01,6.155829702431070416e-02,2.213180359670019470e-01,2.213180359670019470e-01,0.000000000000000000e+00
1.550000000000000000e+01,8.856374635655495098e-02,2.700544933224424682e-01,2.700544933224424682e-01,0.000000000000000000e+00
1.560000000000000142e+01,1.204161903062610506e-01,3.185244394970609960e-01,3.185244394970609960e-01,0.000000000000000000e+00
1.570000000000000107e+01,1.570841943568428434e-01,3.666800405058179280e-01,3.666800405058179280e-01,0.000000000000000000e+00
