# Time (s), Input signal, Derivative, Derivative positive, Derivative negative
1.000000000000000056e-01,5.125581039058626942e+00,6.275952090236991410e-01,6.275952090236991410e-01,0.000000000000000000e+00
2.000000000000000111e-01,5.188216626637029094e+00,6.263558757840215208e-01,6.263558757840215208e-01,0.000000000000000000e+00
3.000000000000000444e-01,5.250666467128608517e+00,6.244984049157942252e-01,6.244984049157942252e-01,0.000000000000000000e+00
4.000000000000000222e-01,5.312868930080461460e+00,6.220246295185294372e-01,6.220246295185294372e-01,0.000000000000000000e+00
5.000000000000000000e-01,5.374762629171449646e+00,6.189369909098818567e-01,6.189369909098818567e-01,0.000000000000000000e+00
6.000000000000000888e-01,5.436286482793084573e+00,6.152385362163492744e-01,6.152385362163492744e-01,0.000000000000000000e+00
7.000000000000000666e-01,5.497379774329709257e+00,6.109329153662468315e-01,6.109329153662468315e-01,0.000000000000000000e+00
8.000000000000000444e-01,5.557982212078458772e+00,6.060243774874951583e-01,6.060243774874951583e-01,0.000000000000000000e+00
9.000000000000000222e-01,5.618033988749894903e+00,6.005177667143613007e-01,6.005177667143613007e-01,0.000000000000000000e+00
1.000000000000000000e+00,5.677475840490582293e+00,5.944185174068739030e-01,5.944185174068739030e-01,0.000000000000000000e+00
1.100000000000000089e+00,5.736249105369355838e+00,5.877326487877354566e-01,5.877326487877354566e-01,0.000000000000000000e+00
1.200000000000000178e+00,5.794295781269561019e+00,5.804667590020518020e-01,5.804667590020518020e-01,0.000000000000000000e+00
1.300000000000000044e+00,5.851558583130145763e+00,5.726280186058474442e-01,5.726280186058474442e-01,0.000000000000000000e+00
1.400000000000000133e+00,5.907980999479093498e+00,5.642241634894773483e-01,5.642241634894773483e-01,0.000000000000000000e+00
1.500000000000000000e+00,5.963507348203430425e+00,5.552634872433692692e-01,5.552634872433692692e-01,0.000000000000000000e+00
1.600000000000000089e+00,6.018082831500742635e+00,5.457548329731221060e-01,5.457548329731221060e-01,0.000000000000000000e+00
1.700000000000000178e+00,6.071653589957993091e+00,5.357075845725045582e-01,5.357075845725045582e-01,0.000000000000000000e+00
1.800000000000000044e+00,6.124166755704261611e+00,5.251316574626851974e-01,5.251316574626851974e-01,0.000000000000000000e+00
1.900000000000000133e+00,6.175570504584946718e+00,5.140374888068510728e-01,5.140374888068510728e-01,0.000000000000000000e+00
2.000000000000000000e+00,6.225814107305953193e+00,5.024360272100647506e-01,5.024360272100647506e-01,0.000000000000000000e+00
2.100000000000000089e+00,6.274847979497379491e+00,4.903387219142629760e-01,4.903387219142629760e-01,0.000000000000000000e+00
2.200000000000000178e+00,6.322623730647304541e+00,4.777575114992504979e-01,4.777575114992504979e-01,0.000000000000000000e+00
2.300000000000000266e+00,6.369094211857377452e+00,4.647048121007291144e-01,4.647048121007291144e-01,0.000000000000000000e+00
2.400000000000000355e+00,6.414213562373095812e+00,4.511935051571835942e-01,4.511935051571835942e-01,0.000000000000000000e+00
2.500000000000000000e+00,6.457937254842823549e+00,4.372369246972773738e-01,4.372369246972773738e-01,0.000000000000000000e+00
2.600000000000000089e+00,6.500222139260919185e+00,4.228488441809563625e-01,4.228488441809563625e-01,0.000000000000000000e+00
2.700000000000000178e+00,6.541026485551578951e+00,4.080434629065976537e-01,4.080434629065976537e-01,0.000000000000000000e+00
2.800000000000000266e+00,6.580310024751381270e+00,3.928353919980231979e-01,3.928353919980231979e-01,0.000000000000000000e+00
2.900000000000000355e+00,6.618033988749894903e+00,3.772396399851363213e-01,3.772396399851363213e-01,0.000000000000000000e+00
3.000000000000000000e+00,6.654161148549124327e+00,3.612715979922942466e-01,3.612715979922942466e-01,0.000000000000000000e+00
3.100000000000000089e+00,6.688655851004030595e+00,3.449470245490626752e-01,3.449470245490626752e-01,0.000000000000000000e+00
3.200000000000000178e+00,6.721484054007888176e+00,3.282820300385758117e-01,3.282820300385758117e-01,0.000000000000000000e+00
3.300000000000000266e+00,6.752613360087727834e+00,3.112930607983965814e-01,3.112930607983965814e-01,0.000000000000000000e+00
3.400000000000000355e+00,6.782013048376736464e+00,2.939968828900862974e-01,2.939968828900862974e-01,0.000000000000000000e+00
3.500000000000000000e+00,6.809654104932039154e+00,2.764105655530268990e-01,2.764105655530268990e-01,0.000000000000000000e+00
3.600000000000000089e+00,6.835509251367962946e+00,2.585514643592379258e-01,2.585514643592379258e-01,0.000000000000000000e+00
3.700000000000000178e+00,6.859552971776503583e+00,2.404372040854063641e-01,2.404372040854063641e-01,0.000000000000000000e+00
3.800000000000000266e+00,6.881761537908451132e+00,2.220856613194754914e-01,2.220856613194754914e-01,0.000000000000000000e+00
3.900000000000000355e+00,6.902113032590307284e+00,2.035149468185615262e-01,2.035149468185615262e-01,0.000000000000000000e+00
4.000000000000000000e+00,6.920587371353886574e+00,1.847433876357928995e-01,1.847433876357928995e-01,0.000000000000000000e+00
4.100000000000000533e+00,6.937166322257262152e+00,1.657895090337557775e-01,1.657895090337557775e-01,0.000000000000000000e+00
4.200000000000000178e+00,6.951833523877494869e+00,1.466720162023271712e-01,1.466720162023271712e-01,0.000000000000000000e+00
4.299999999999999822e+00,6.964574501457377664e+00,1.274097757988279511e-01,1.274097757988279511e-01,0.000000000000000000e+00
4.400000000000000355e+00,6.975376681190275541e+00,1.080217973289787636e-01,1.080217973289787636e-01,0.000000000000000000e+00
4.500000000000000000e+00,6.984229402628955086e+00,8.852721438679544974e-02,8.852721438679544974e-02,0.000000000000000000e+00
4.600000000000000533e+00,6.991123929206159993e+00,6.894526577204906914e-02,6.894526577204906914e-02,0.000000000000000000e+00
4.700000000000000178e+00,6.996053456856543562e+00,4.929527650383569437e-02,4.929527650383569437e-02,0.000000000000000000e+00
4.800000000000000711e+00,6.999013120731462756e+00,2.959663874919193916e-02,2.959663874919193916e-02,0.000000000000000000e+00
4.900000000000000355e+00,7.000000000000000000e+00,9.868792685372440587e-03,9.868792685372440587e-03,0.000000000000000000e+00
5.000000000000000000e+00,6.996053456856543562e+00,-3.946543143456437974e-02,0.000000000000000000e+00,-3.946543143456437974e-02
5.100000000000000533e+00,6.984229402628955974e+00,-1.182405422758758817e-01,0.000000000000000000e+00,-1.182405422758758817e-01
5.200000000000000178e+00,6.964574501457377664e+00,-1.965490117157830952e-01,0.000000000000000000e+00,-1.965490117157830952e-01
5.300000000000000711e+00,6.937166322257262152e+00,-2.740817920011551223e-01,0.000000000000000000e+00,-2.740817920011551223e-01
5.400000000000000355e+00,6.902113032590307284e+00,-3.505328966695486770e-01,0.000000000000000000e+00,-3.505328966695486770e-01
5.500000000000000000e+00,6.859552971776502694e+00,-4.256006081380458994e-01,0.000000000000000000e+00,-4.256006081380458994e-01
5.600000000000000533e+00,6.809654104932039154e+00,-4.989886684446354082e-01,0.000000000000000000e+00,-4.989886684446354082e-01
5.700000000000000178e+00,6.752613360087726946e+00,-5.704074484431220782e-01,0.000000000000000000e+00,-5.704074484431220782e-01
5.800000000000000711e+00,6.688655851004030595e+00,-6.395750908369635113e-01,0.000000000000000000e+00,-6.395750908369635113e-01
5.900000000000000355e+00,6.618033988749894903e+00,-7.062186225413569218e-01,0.000000000000000000e+00,-7.062186225413569218e-01
6.000000000000000000e+00,6.541026485551578951e+00,-7.700750319831595192e-01,0.000000000000000000e+00,-7.700750319831595192e-01
6.100000000000000533e+00,6.457937254842822661e+00,-8.308923070875628980e-01,0.000000000000000000e+00,-8.308923070875628980e-01
6.200000000000000178e+00,6.369094211857377452e+00,-8.884304298544520861e-01,0.000000000000000000e+00,-8.884304298544520861e-01
6.300000000000000711e+00,6.274847979497378603e+00,-9.424623235999884940e-01,0.000000000000000000e+00,-9.424623235999884940e-01
6.400000000000000355e+00,6.175570504584946718e+00,-9.927747491243188449e-01,0.000000000000000000e+00,-9.927747491243188449e-01
6.500000000000000000e+00,6.071653589957993091e+00,-1.039169146269536270e+00,0.000000000000000000e+00,-1.039169146269536270e+00
6.600000000000000533e+00,5.963507348203430425e+00,-1.081462417545626664e+00,0.000000000000000000e+00,-1.081462417545626664e+00
6.700000000000000178e+00,5.851558583130144875e+00,-1.119487650732855499e+00,0.000000000000000000e+00,-1.119487650732855499e+00
6.800000000000000711e+00,5.736249105369355838e+00,-1.153094777607890364e+00,0.000000000000000000e+00,-1.153094777607890364e+00
6.900000000000000355e+00,5.618033988749894903e+00,-1.182151166194609360e+00,0.000000000000000000e+00,-1.182151166194609360e+00
7.000000000000000000e+00,5.497379774329708368e+00,-1.206542144201865341e+00,0.000000000000000000e+00,-1.206542144201865341e+00
7.100000000000000533e+00,5.374762629171448758e+00,-1.226171451582596106e+00,0.000000000000000000e+00,-1.226171451582596106e+00
7.200000000000000178e+00,5.250666467128607628e+00,-1.240961620428411294e+00,0.000000000000000000e+00,-1.240961620428411294e+00
7.300000000000000711e+00,5.125581039058626054e+00,-1.250854280699815746e+00,0.000000000000000000e+00,-1.250854280699815746e+00
7.400000000000000355e+00,4.999999999999998224e+00,-1.255810390586278302e+00,0.000000000000000000e+00,-1.255810390586278302e+00
7.500000000000000000e+00,4.748837921882747004e+00,-2.511620781172512196e+00,0.000000000000000000e+00,-2.511620781172512196e+00
7.600000000000000533e+00,4.498667065742782967e+00,-2.501708561399640374e+00,0.000000000000000000e+00,-2.501708561399640374e+00
7.700000000000000178e+00,4.250474741657102484e+00,-2.481923240856804824e+00,0.000000000000000000e+00,-2.481923240856804824e+00
7.800000000000000711e+00,4.005240451340581487e+00,-2.452342903165209975e+00,0.000000000000000000e+00,-2.452342903165209975e+00
7.900000000000000355e+00,3.763932022500211083e+00,-2.413084288403704036e+00,0.000000000000000000e+00,-2.413084288403704036e+00
8.000000000000000000e+00,3.527501789261288323e+00,-2.364302332389227601e+00,0.000000000000000000e+00,-2.364302332389227601e+00
8.099999999999999645e+00,3.296882833739709362e+00,-2.306189555215789611e+00,0.000000000000000000e+00,-2.306189555215789611e+00
8.200000000000001066e+00,3.072985303593140038e+00,-2.238975301465693235e+00,0.000000000000000000e+00,-2.238975301465693235e+00
8.300000000000000711e+00,2.856692820084014262e+00,-2.162924835091257769e+00,0.000000000000000000e+00,-2.162924835091257769e+00
8.400000000000000355e+00,2.648858990830107896e+00,-2.078338292539063659e+00,0.000000000000000000e+00,-2.078338292539063659e+00
8.500000000000000000e+00,2.450304041005242794e+00,-1.985549498248651012e+00,0.000000000000000000e+00,-1.985549498248651012e+00
8.599999999999999645e+00,2.261811576285245096e+00,-1.884924647199976988e+00,0.000000000000000000e+00,-1.884924647199976988e+00
8.700000000000001066e+00,2.084125490314354678e+00,-1.776860859708904172e+00,0.000000000000000000e+00,-1.776860859708904172e+00
8.800000000000000711e+00,1.917947028896842543e+00,-1.661784614175121355e+00,0.000000000000000000e+00,-1.661784614175121355e+00
8.900000000000000355e+00,1.763932022500210639e+00,-1.540150063966319038e+00,0.000000000000000000e+00,-1.540150063966319038e+00
9.000000000000000000e+00,1.622688297991941031e+00,-1.412437245082696080e+00,0.000000000000000000e+00,-1.412437245082696080e+00
9.099999999999999645e+00,1.494773279824545664e+00,-1.279150181673953668e+00,0.000000000000000000e+00,-1.279150181673953668e+00
9.200000000000001066e+00,1.380691790135920805e+00,-1.140814896886248597e+00,0.000000000000000000e+00,-1.140814896886248597e+00
9.300000000000000711e+00,1.280894056446994167e+00,-9.979773368892663754e-01,0.000000000000000000e+00,-9.979773368892663754e-01
9.400000000000000355e+00,1.195773934819385875e+00,-8.512012162760829170e-01,0.000000000000000000e+00,-8.512012162760829170e-01
9.500000000000000000e+00,1.125667355485475252e+00,-7.010657933391062357e-01,0.000000000000000000e+00,-7.010657933391062357e-01
9.600000000000001421e+00,1.070850997085245115e+00,-5.481635840023013628e-01,0.000000000000000000e+00,-5.481635840023013628e-01
9.700000000000001066e+00,1.031541194742088496e+00,-3.930980234315661903e-01,0.000000000000000000e+00,-3.930980234315661903e-01
9.800000000000000711e+00,1.007893086286913764e+00,-2.364810845517473226e-01,0.000000000000000000e+00,-2.364810845517473226e-01
9.900000000000000355e+00,1.000000000000000000e+00,-7.893086286913764127e-02,0.000000000000000000e+00,-7.893086286913764127e-02
1.000000000000000000e+01,1.000000000000000000e+00,0.000000000000000000e+00,0.000000000000000000e+00,0.000000000000000000e+00
1.010000000000000142e+01,1.000000000000000000e+00,0.000000000000000000e+00,0.000000000000000000e+00,0.000000000000000000e+00
1.020000000000000107e+01,1.000000000000000000e+00,0.000000000000000000e+00,0.000000000000000000e+00,0.000000000000000000e+00
1.030000000000000071e+01,1.000000000000000000e+00,0.000000000000000000e+00,0.000000000000000000e+00,0.000000000000000000e+00
1.040000000000000036e+01,1.000000000000000000e+00,0.000000000000000000e+00,0.000000000000000000e+00,0.000000000000000000e+00
1.050000000000000000e+01,1.000000000000000000e+00,0.000000000000000000e+00,0.000000000000000000e+00,0.000000000000000000e+00
1.060000000000000142e+01,1.000000000000000000e+00,0.000000000000000000e+00,0.000000000000000000e+00,0.000000000000000000e+00
1.070000000000000107e+01,1.000000000000000000e+00,0.000000000000000000e+00,0.000000000000000000e+00,0.000000000000000000e+00
1.080000000000000071e+01,1.000000000000000000e+00,0.000000000000000000e+00,0.000000000000000000e+00,0.000000000000000000e+00
1.090000000000000036e+01,1.000000000000000000e+00,0.000000000000000000e+00,0.000000000000000000e+00,0.000000000000000000e+00
1.100000000000000000e+01,1.000000000000000000e+00,0.000000000000000000e+00,0.000000000000000000e+00,0.000000000000000000e+00
1.110000000000000142e+01,1.000000000000000000e+00,0.000000000000000000e+00,0.000000000000000000e+00,0.000000000000000000e+00
1.120000000000000107e+01,1.000000000000000000e+00,0.000000000000000000e+00,0.000000000000000000e+00,0.000000000000000000e+00
1.130000000000000071e+01,1.000000000000000000e+00,0.000000000000000000e+00,0.000000000000000000e+00,0.000000000000000000e+00
1.140000000000000036e+01,1.000000000000000000e+00,0.000000000000000000e+00,0.000000000000000000e+00,0.000000000000000000e+00
1.150000000000000000e+01,1.000000000000000000e+00,0.000000000000000000e+00,0.000000000000000000e+00,0.000000000000000000e+00
1.160000000000000142e+01,1.000000000000000000e+00,0.000000000000000000e+00,0.000000000000000000e+00,0.000000000000000000e+00
1.170000000000000107e+01,1.000000000000000000e+00,0.000000000000000000e+00,0.000000000000000000e+00,0.000000000000000000e+00
1.180000000000000071e+01,1.000000000000000000e+00,0.000000000000000000e+00,0.000000000000000000e+00,0.000000000000000000e+00
1.190000000000000036e+01,1.000000000000000000e+00,0.000000000000000000e+00,0.000000000000000000e+00,0.000000000000000000e+00
1.200000000000000000e+01,1.000000000000000000e+00,0.000000000000000000e+00,0.000000000000000000e+00,0.000000000000000000e+00
1.210000000000000142e+01,1.000000000000000000e+00,0.000000000000000000e+00,0.000000000000000000e+00,0.000000000000000000e+00
1.220000000000000107e+01,1.000000000000000000e+00,0.000000000000000000e+00,0.000000000000000000e+00,0.000000000000000000e+00
1.230000000000000071e+01,1.000000000000000000e+00,0.000000000000000000e+00,0.000000000000000000e+00,0.000000000000000000e+00
1.240000000000000036e+01,1.000000000000000000e+00,0.000000000000000000e+00,0.000000000000000000e+00,0.000000000000000000e+00
1.250000000000000000e+01,1.000000000000000000e+00,0.000000000000000000e+00,0.000000000000000000e+00,0.000000000000000000e+00
1.260000000000000142e+01,1.000000000000000000e+00,0.000000000000000000e+00,0.000000000000000000e+00,0.000000000000000000e+00
1.270000000000000107e+01,1.000000000000000000e+00,0.000000000000000000e+00,0.000000000000000000e+00,0.000000000000000000e+00
1.280000000000000071e+01,1.000000000000000000e+00,0.000000000000000000e+00,0.000000000000000000e+00,0.000000000000000000e+00
1.290000000000000036e+01,1.000000000000000000e+00,0.000000000000000000e+00,0.000000000000000000e+00,0.000000000000000000e+00
1.300000000000000000e+01,1.000000000000000000e+00,0.000000000000000000e+00,0.000000000000000000e+00,0.000000000000000000e+00
1.310000000000000142e+01,1.000000000000000000e+00,0.000000000000000000e+00,0.000000000000000000e+00,0.000000000000000000e+00
1.320000000000000107e+01,1.000000000000000000e+00,0.000000000000000000e+00,0.000000000000000000e+00,0.000000000000000000e+00
1.330000000000000071e+01,1.000000000000000000e+00,0.000000000000000000e+00,0.000000000000000000e+00,0.000000000000000000e+00
1.340000000000000036e+01,1.000000000000000000e+00,0.000000000000000000e+00,0.000000000000000000e+00,0.000000000000000000e+00
1.350000000000000000e+01,1.000000000000000000e+00,0.000000000000000000e+00,0.000000000000000000e+00,0.000000000000000000e+00
1.360000000000000142e+01,1.000000000000000000e+00,0.000000000000000000e+00,0.000000000000000000e+00,0.000000000000000000e+00
1.370000000000000107e+01,1.000000000000000000e+00,0.000000000000000000e+00,0.000000000000000000e+00,0.000000000000000000e+00
1.380000000000000071e+01,1.000000000000000000e+00,0.000000000000000000e+00,0.000000000000000000e+00,0.000000000000000000e+00
1.390000000000000036e+01,1.000000000000000000e+00,0.000000000000000000e+00,0.000000000000000000e+00,0.000000000000000000e+00
1.400000000000000000e+01,1.000000000000000000e+00,0.000000000000000000e+00,0.000000000000000000e+00,0.000000000000000000e+00
1.410000000000000142e+01,1.000000000000000000e+00,0.000000000000000000e+00,0.000000000000000000e+00,0.000000000000000000e+00
1.420000000000000107e+01,1.000000000000000000e+00,0.000000000000000000e+00,0.000000000000000000e+00,0.000000000000000000e+00
1.430000000000000071e+01,1.000000000000000000e+00,0.000000000000000000e+00,0.000000000000000000e+00,0.000000000000000000e+00
1.440000000000000036e+01,1.000000000000000000e+00,0.000000000000000000e+00,0.000000000000000000e+00,0.000000000000000000e+00
1.450000000000000000e+01,1.000000000000000000e+00,0.000000000000000000e+00,0.000000000000000000e+00,0.000000000000000000e+00
1.460000000000000142e+01,1.000000000000000000e+00,0.000000000000000000e+00,0.000000000000000000e+00,0.000000000000000000e+00
1.470000000000000107e+01,1.000000000000000000e+00,0.000000000000000000e+00,0.000000000000000000e+00,0.000000000000000000e+00
1.480000000000000071e+01,1.000000000000000000e+00,0.000000000000000000e+00,0.000000000000000000e+00,0.000000000000000000e+00
1.490000000000000036e+01,1.000000000000000000e+00,0.000000000000000000e+00,0.000000000000000000e+00,0.000000000000000000e+00
1.500000000000000000e+01,1.000000000000000000e+00,0.000000000000000000e+00,0.000000000000000000e+00,0.000000000000000000e+00
1.510000000000000142e+01,1.000000000000000000e+00,0.000000000000000000e+00,0.000000000000000000e+00,0.000000000000000000e+00
1.520000000000000107e+01,1.000000000000000000e+00,0.000000000000000000e+00,0.000000000000000000e+00,0.000000000000000000e+00
1.530000000000000071e+01,1.000000000000000000e+00,0.000000000000000000e+00,0.000000000000000000e+00,0.000000000000000000e+00
1.540000000000000036e+01,1.000000000000000000e+00,0.000000000000000000e+00,0.000000000000000000e+00,0.000000000000000000e+00
1.550000000000000000e+01,1.000000000000000000e+00,0.000000000000000000e+00,0.000000000000000000e+00,0.000000000000000000e+00
1.560000000000000142e+01,1.000000000000000000e+00,0.000000000000000000e+00,0.000000000000000000e+00,0.000000000000000000e+00
1.570000000000000107e+01,1.000000000000000000e+00,0.000000000000000000e+00,0.000000000000000000e+00,0.000000000000000000e+00
1.580000000000000071e+01,1.000000000000000000e+00,0.000000000000000000e+00,0.000000000000000000e+00,0.000000000000000000e+00
